# Transmission through ionization/dissociation front produced by UV and 
# X-rays from a GRB.  Spectrum calculated by B.T. Draine
# References:
# Draine, B.T. 2000: Gamma Ray Bursts in Molecular Clouds: H2 Absorption
#     and Fluorescence, ApJ 532, 273
# Draine, B.T., & Hao, L. 2002, Gamma Ray Burst in a Molecular Cloud:
#     Destruction of Dust and H2, and Emergent Spectrum, ApJ 569, 780
# 
#  1.000E+03 = n_H (cm-3)
#     -0.500 = beta ( L_nu propto nu^{beta} )
# 
# N(H), N(H2+), and N(H2_vJ) from h2abs_nvj.dat                                   
#      28765  H2 lines from 299 levels of H2
#     216670  = NWAV = number of wavelengths
#         75  = 2*KKMAX+1 points in smoothing kernel
#    10000.0 = lambda/FWHM(lambda) in final spectrum
#  1.002E+03 = time (s)
#  3.596E+19 = N(H) (cm-2)
#  6.732E+16 = N(H2+) (cm-2)
#  5.905E-01 = tau_d
#      72204 = number of output frequencies
# 
# transmission as a function of frequency
#   f (cm-1)   I/I_0   tau(gas)
# ------------------------------
  57131.44 8.068E-01 2.147E-01
  57132.01 8.098E-01 2.110E-01
  57132.58 8.114E-01 2.090E-01
  57133.15 8.119E-01 2.083E-01
  57133.72 8.123E-01 2.079E-01
  57134.29 8.128E-01 2.072E-01
  57134.87 8.135E-01 2.065E-01
  57135.44 8.141E-01 2.057E-01
  57136.01 8.147E-01 2.049E-01
  57136.58 8.152E-01 2.043E-01
  57137.15 8.156E-01 2.038E-01
  57137.72 8.159E-01 2.035E-01
  57138.30 8.161E-01 2.032E-01
  57138.87 8.162E-01 2.030E-01
  57139.44 8.163E-01 2.029E-01
  57140.01 8.164E-01 2.029E-01
  57140.58 8.164E-01 2.028E-01
  57141.16 8.164E-01 2.028E-01
  57141.73 8.164E-01 2.028E-01
  57142.30 8.164E-01 2.028E-01
  57142.87 8.164E-01 2.028E-01
  57143.44 8.164E-01 2.028E-01
  57144.01 8.164E-01 2.028E-01
  57144.59 8.164E-01 2.028E-01
  57145.16 8.164E-01 2.028E-01
  57145.73 8.164E-01 2.028E-01
  57146.30 8.164E-01 2.028E-01
  57146.87 8.164E-01 2.028E-01
  57147.45 8.164E-01 2.028E-01
  57148.02 8.164E-01 2.028E-01
  57148.59 8.164E-01 2.028E-01
  57149.16 8.164E-01 2.028E-01
  57149.73 8.164E-01 2.028E-01
  57150.30 8.164E-01 2.028E-01
  57150.88 8.164E-01 2.028E-01
  57151.45 8.164E-01 2.028E-01
  57152.02 8.164E-01 2.028E-01
  57152.59 8.164E-01 2.028E-01
  57153.16 8.164E-01 2.028E-01
  57153.74 8.164E-01 2.028E-01
  57154.31 8.164E-01 2.028E-01
  57154.88 8.164E-01 2.028E-01
  57155.45 8.164E-01 2.028E-01
  57156.02 8.164E-01 2.028E-01
  57156.60 8.164E-01 2.028E-01
  57157.17 8.164E-01 2.028E-01
  57157.74 8.164E-01 2.028E-01
  57158.31 8.164E-01 2.028E-01
  57158.88 8.164E-01 2.028E-01
  57159.46 8.164E-01 2.028E-01
  57160.03 8.164E-01 2.028E-01
  57160.60 8.164E-01 2.028E-01
  57161.17 8.164E-01 2.028E-01
  57161.74 8.164E-01 2.028E-01
  57162.32 8.164E-01 2.028E-01
  57162.89 8.164E-01 2.028E-01
  57163.46 8.164E-01 2.028E-01
  57164.03 8.164E-01 2.028E-01
  57164.60 8.164E-01 2.028E-01
  57165.18 8.164E-01 2.028E-01
  57165.75 8.164E-01 2.028E-01
  57166.32 8.164E-01 2.028E-01
  57166.89 8.164E-01 2.028E-01
  57167.46 8.164E-01 2.028E-01
  57168.04 8.164E-01 2.028E-01
  57168.61 8.164E-01 2.028E-01
  57169.18 8.164E-01 2.028E-01
  57169.75 8.164E-01 2.028E-01
  57170.32 8.164E-01 2.029E-01
  57170.90 8.162E-01 2.030E-01
  57171.47 8.160E-01 2.033E-01
  57172.04 8.157E-01 2.037E-01
  57172.61 8.153E-01 2.042E-01
  57173.19 8.146E-01 2.051E-01
  57173.76 8.136E-01 2.063E-01
  57174.33 8.124E-01 2.078E-01
  57174.90 8.109E-01 2.096E-01
  57175.47 8.093E-01 2.116E-01
  57176.05 8.077E-01 2.136E-01
  57176.62 8.062E-01 2.154E-01
  57177.19 8.052E-01 2.166E-01
  57177.76 8.047E-01 2.173E-01
  57178.33 8.049E-01 2.171E-01
  57178.91 8.056E-01 2.162E-01
  57179.48 8.068E-01 2.147E-01
  57180.05 8.083E-01 2.128E-01
  57180.62 8.100E-01 2.108E-01
  57181.20 8.115E-01 2.088E-01
  57181.77 8.129E-01 2.071E-01
  57182.34 8.140E-01 2.057E-01
  57182.91 8.149E-01 2.047E-01
  57183.48 8.155E-01 2.040E-01
  57184.06 8.159E-01 2.035E-01
  57184.63 8.161E-01 2.032E-01
  57185.20 8.163E-01 2.030E-01
  57185.77 8.164E-01 2.029E-01
  57186.35 8.164E-01 2.028E-01
  57186.92 8.164E-01 2.028E-01
  57187.49 8.164E-01 2.028E-01
  57188.06 8.164E-01 2.028E-01
  57188.63 8.164E-01 2.028E-01
  57189.21 8.164E-01 2.028E-01
  57189.78 8.164E-01 2.028E-01
  57190.35 8.164E-01 2.028E-01
  57190.92 8.164E-01 2.028E-01
  57191.50 8.164E-01 2.028E-01
  57192.07 8.164E-01 2.028E-01
  57192.64 8.164E-01 2.028E-01
  57193.21 8.164E-01 2.028E-01
  57193.79 8.164E-01 2.028E-01
  57194.36 8.164E-01 2.028E-01
  57194.93 8.164E-01 2.028E-01
  57195.50 8.164E-01 2.028E-01
  57196.07 8.164E-01 2.028E-01
  57196.65 8.164E-01 2.029E-01
  57197.22 8.164E-01 2.029E-01
  57197.79 8.164E-01 2.029E-01
  57198.36 8.164E-01 2.029E-01
  57198.94 8.163E-01 2.029E-01
  57199.51 8.163E-01 2.030E-01
  57200.08 8.163E-01 2.030E-01
  57200.65 8.162E-01 2.031E-01
  57201.23 8.161E-01 2.032E-01
  57201.80 8.161E-01 2.033E-01
  57202.37 8.160E-01 2.034E-01
  57202.94 8.159E-01 2.034E-01
  57203.52 8.159E-01 2.035E-01
  57204.09 8.159E-01 2.035E-01
  57204.66 8.159E-01 2.035E-01
  57205.23 8.159E-01 2.034E-01
  57205.81 8.160E-01 2.033E-01
  57206.38 8.161E-01 2.032E-01
  57206.95 8.162E-01 2.032E-01
  57207.52 8.162E-01 2.031E-01
  57208.10 8.163E-01 2.030E-01
  57208.67 8.163E-01 2.030E-01
  57209.24 8.163E-01 2.029E-01
  57209.81 8.164E-01 2.029E-01
  57210.39 8.164E-01 2.029E-01
  57210.96 8.164E-01 2.029E-01
  57211.53 8.164E-01 2.029E-01
  57212.10 8.164E-01 2.029E-01
  57212.68 8.164E-01 2.029E-01
  57213.25 8.164E-01 2.029E-01
  57213.82 8.164E-01 2.029E-01
  57214.39 8.164E-01 2.029E-01
  57214.97 8.164E-01 2.029E-01
  57215.54 8.164E-01 2.029E-01
  57216.11 8.164E-01 2.029E-01
  57216.68 8.164E-01 2.029E-01
  57217.26 8.164E-01 2.029E-01
  57217.83 8.164E-01 2.029E-01
  57218.40 8.164E-01 2.029E-01
  57218.97 8.164E-01 2.029E-01
  57219.55 8.164E-01 2.029E-01
  57220.12 8.164E-01 2.029E-01
  57220.69 8.164E-01 2.029E-01
  57221.26 8.164E-01 2.029E-01
  57221.84 8.164E-01 2.029E-01
  57222.41 8.164E-01 2.029E-01
  57222.98 8.164E-01 2.029E-01
  57223.55 8.164E-01 2.029E-01
  57224.13 8.164E-01 2.029E-01
  57224.70 8.164E-01 2.029E-01
  57225.27 8.164E-01 2.029E-01
  57225.85 8.164E-01 2.029E-01
  57226.42 8.164E-01 2.029E-01
  57226.99 8.164E-01 2.029E-01
  57227.56 8.164E-01 2.029E-01
  57228.14 8.164E-01 2.029E-01
  57228.71 8.164E-01 2.029E-01
  57229.28 8.164E-01 2.029E-01
  57229.85 8.164E-01 2.029E-01
  57230.43 8.164E-01 2.029E-01
  57231.00 8.164E-01 2.029E-01
  57231.57 8.164E-01 2.029E-01
  57232.14 8.164E-01 2.029E-01
  57232.72 8.164E-01 2.029E-01
  57233.29 8.164E-01 2.029E-01
  57233.86 8.164E-01 2.029E-01
  57234.44 8.164E-01 2.029E-01
  57235.01 8.164E-01 2.029E-01
  57235.58 8.164E-01 2.029E-01
  57236.15 8.164E-01 2.029E-01
  57236.73 8.164E-01 2.029E-01
  57237.30 8.164E-01 2.029E-01
  57237.87 8.164E-01 2.029E-01
  57238.45 8.164E-01 2.029E-01
  57239.02 8.164E-01 2.029E-01
  57239.59 8.164E-01 2.029E-01
  57240.16 8.164E-01 2.029E-01
  57240.74 8.164E-01 2.029E-01
  57241.31 8.164E-01 2.029E-01
  57241.88 8.164E-01 2.029E-01
  57242.45 8.164E-01 2.029E-01
  57243.03 8.164E-01 2.029E-01
  57243.60 8.164E-01 2.029E-01
  57244.17 8.164E-01 2.029E-01
  57244.75 8.164E-01 2.029E-01
  57245.32 8.164E-01 2.029E-01
  57245.89 8.164E-01 2.029E-01
  57246.46 8.164E-01 2.029E-01
  57247.04 8.164E-01 2.029E-01
  57247.61 8.164E-01 2.029E-01
  57248.18 8.164E-01 2.029E-01
  57248.76 8.164E-01 2.029E-01
  57249.33 8.163E-01 2.029E-01
  57249.90 8.163E-01 2.030E-01
  57250.47 8.161E-01 2.032E-01
  57251.05 8.159E-01 2.034E-01
  57251.62 8.157E-01 2.038E-01
  57252.19 8.152E-01 2.043E-01
  57252.77 8.147E-01 2.049E-01
  57253.34 8.140E-01 2.058E-01
  57253.91 8.133E-01 2.067E-01
  57254.49 8.125E-01 2.076E-01
  57255.06 8.118E-01 2.085E-01
  57255.63 8.112E-01 2.092E-01
  57256.20 8.109E-01 2.096E-01
  57256.78 8.108E-01 2.097E-01
  57257.35 8.111E-01 2.094E-01
  57257.92 8.116E-01 2.088E-01
  57258.50 8.122E-01 2.080E-01
  57259.07 8.129E-01 2.071E-01
  57259.64 8.136E-01 2.063E-01
  57260.21 8.142E-01 2.056E-01
  57260.79 8.145E-01 2.051E-01
  57261.36 8.147E-01 2.049E-01
  57261.93 8.147E-01 2.049E-01
  57262.51 8.145E-01 2.052E-01
  57263.08 8.142E-01 2.055E-01
  57263.65 8.139E-01 2.059E-01
  57264.23 8.136E-01 2.063E-01
  57264.80 8.134E-01 2.066E-01
  57265.37 8.133E-01 2.067E-01
  57265.95 8.134E-01 2.066E-01
  57266.52 8.136E-01 2.063E-01
  57267.09 8.139E-01 2.059E-01
  57267.66 8.143E-01 2.054E-01
  57268.24 8.148E-01 2.048E-01
  57268.81 8.152E-01 2.043E-01
  57269.38 8.155E-01 2.039E-01
  57269.96 8.158E-01 2.036E-01
  57270.53 8.160E-01 2.033E-01
  57271.10 8.162E-01 2.031E-01
  57271.68 8.163E-01 2.030E-01
  57272.25 8.163E-01 2.029E-01
  57272.82 8.164E-01 2.029E-01
  57273.40 8.164E-01 2.029E-01
  57273.97 8.164E-01 2.029E-01
  57274.54 8.164E-01 2.029E-01
  57275.11 8.164E-01 2.029E-01
  57275.69 8.164E-01 2.029E-01
  57276.26 8.164E-01 2.029E-01
  57276.83 8.164E-01 2.029E-01
  57277.41 8.164E-01 2.029E-01
  57277.98 8.164E-01 2.029E-01
  57278.55 8.164E-01 2.029E-01
  57279.13 8.164E-01 2.029E-01
  57279.70 8.164E-01 2.029E-01
  57280.27 8.164E-01 2.029E-01
  57280.85 8.163E-01 2.030E-01
  57281.42 8.160E-01 2.033E-01
  57281.99 8.156E-01 2.038E-01
  57282.57 8.150E-01 2.046E-01
  57283.14 8.141E-01 2.057E-01
  57283.71 8.127E-01 2.074E-01
  57284.29 8.108E-01 2.097E-01
  57284.86 8.084E-01 2.127E-01
  57285.43 8.056E-01 2.161E-01
  57286.01 8.026E-01 2.199E-01
  57286.58 7.996E-01 2.236E-01
  57287.15 7.971E-01 2.268E-01
  57287.73 7.954E-01 2.290E-01
  57288.30 7.947E-01 2.298E-01
  57288.87 7.951E-01 2.293E-01
  57289.45 7.967E-01 2.273E-01
  57290.02 7.990E-01 2.243E-01
  57290.59 8.019E-01 2.207E-01
  57291.17 8.050E-01 2.169E-01
  57291.74 8.079E-01 2.134E-01
  57292.31 8.103E-01 2.103E-01
  57292.89 8.123E-01 2.079E-01
  57293.46 8.138E-01 2.060E-01
  57294.03 8.148E-01 2.048E-01
  57294.61 8.155E-01 2.040E-01
  57295.18 8.159E-01 2.034E-01
  57295.75 8.163E-01 2.030E-01
  57296.33 8.164E-01 2.029E-01
  57296.90 8.164E-01 2.029E-01
  57297.47 8.164E-01 2.029E-01
  57298.05 8.164E-01 2.029E-01
  57298.62 8.164E-01 2.029E-01
  57299.19 8.164E-01 2.029E-01
  57299.77 8.164E-01 2.029E-01
  57300.34 8.164E-01 2.029E-01
  57300.91 8.164E-01 2.029E-01
  57301.49 8.164E-01 2.029E-01
  57302.06 8.164E-01 2.029E-01
  57302.63 8.164E-01 2.029E-01
  57303.21 8.164E-01 2.029E-01
  57303.78 8.164E-01 2.029E-01
  57304.35 8.164E-01 2.029E-01
  57304.93 8.164E-01 2.029E-01
  57305.50 8.164E-01 2.029E-01
  57306.07 8.164E-01 2.029E-01
  57306.65 8.164E-01 2.029E-01
  57307.22 8.164E-01 2.029E-01
  57307.79 8.164E-01 2.029E-01
  57308.37 8.163E-01 2.030E-01
  57308.94 8.161E-01 2.032E-01
  57309.51 8.159E-01 2.034E-01
  57310.09 8.156E-01 2.038E-01
  57310.66 8.151E-01 2.044E-01
  57311.23 8.145E-01 2.052E-01
  57311.81 8.136E-01 2.062E-01
  57312.38 8.126E-01 2.075E-01
  57312.96 8.114E-01 2.089E-01
  57313.53 8.103E-01 2.104E-01
  57314.10 8.092E-01 2.117E-01
  57314.68 8.084E-01 2.127E-01
  57315.25 8.080E-01 2.132E-01
  57315.82 8.080E-01 2.132E-01
  57316.40 8.085E-01 2.126E-01
  57316.97 8.093E-01 2.116E-01
  57317.54 8.104E-01 2.103E-01
  57318.12 8.116E-01 2.088E-01
  57318.69 8.127E-01 2.074E-01
  57319.26 8.137E-01 2.061E-01
  57319.84 8.146E-01 2.051E-01
  57320.41 8.152E-01 2.043E-01
  57320.99 8.157E-01 2.038E-01
  57321.56 8.160E-01 2.034E-01
  57322.13 8.162E-01 2.032E-01
  57322.71 8.163E-01 2.030E-01
  57323.28 8.164E-01 2.029E-01
  57323.85 8.164E-01 2.029E-01
  57324.43 8.164E-01 2.029E-01
  57325.00 8.164E-01 2.029E-01
  57325.57 8.164E-01 2.029E-01
  57326.15 8.164E-01 2.029E-01
  57326.72 8.164E-01 2.029E-01
  57327.30 8.164E-01 2.029E-01
  57327.87 8.164E-01 2.029E-01
  57328.44 8.164E-01 2.029E-01
  57329.02 8.164E-01 2.029E-01
  57329.59 8.164E-01 2.029E-01
  57330.16 8.164E-01 2.029E-01
  57330.74 8.164E-01 2.029E-01
  57331.31 8.163E-01 2.029E-01
  57331.88 8.163E-01 2.030E-01
  57332.46 8.161E-01 2.032E-01
  57333.03 8.160E-01 2.034E-01
  57333.61 8.157E-01 2.037E-01
  57334.18 8.153E-01 2.042E-01
  57334.75 8.147E-01 2.049E-01
  57335.33 8.140E-01 2.058E-01
  57335.90 8.132E-01 2.068E-01
  57336.47 8.123E-01 2.079E-01
  57337.05 8.114E-01 2.089E-01
  57337.62 8.107E-01 2.099E-01
  57338.20 8.102E-01 2.105E-01
  57338.77 8.100E-01 2.108E-01
  57339.34 8.101E-01 2.106E-01
  57339.92 8.106E-01 2.100E-01
  57340.49 8.113E-01 2.092E-01
  57341.06 8.121E-01 2.081E-01
  57341.64 8.130E-01 2.070E-01
  57342.21 8.139E-01 2.060E-01
  57342.79 8.146E-01 2.051E-01
  57343.36 8.152E-01 2.044E-01
  57343.93 8.156E-01 2.038E-01
  57344.51 8.159E-01 2.034E-01
  57345.08 8.161E-01 2.032E-01
  57345.66 8.162E-01 2.030E-01
  57346.23 8.163E-01 2.029E-01
  57346.80 8.164E-01 2.029E-01
  57347.38 8.164E-01 2.029E-01
  57347.95 8.164E-01 2.029E-01
  57348.52 8.164E-01 2.029E-01
  57349.10 8.164E-01 2.029E-01
  57349.67 8.164E-01 2.029E-01
  57350.25 8.164E-01 2.029E-01
  57350.82 8.164E-01 2.029E-01
  57351.39 8.164E-01 2.029E-01
  57351.97 8.163E-01 2.029E-01
  57352.54 8.163E-01 2.029E-01
  57353.12 8.163E-01 2.029E-01
  57353.69 8.163E-01 2.030E-01
  57354.26 8.163E-01 2.030E-01
  57354.84 8.163E-01 2.030E-01
  57355.41 8.162E-01 2.030E-01
  57355.99 8.162E-01 2.031E-01
  57356.56 8.162E-01 2.031E-01
  57357.13 8.161E-01 2.032E-01
  57357.71 8.161E-01 2.033E-01
  57358.28 8.160E-01 2.033E-01
  57358.86 8.159E-01 2.034E-01
  57359.43 8.159E-01 2.034E-01
  57360.00 8.159E-01 2.035E-01
  57360.58 8.159E-01 2.035E-01
  57361.15 8.159E-01 2.034E-01
  57361.73 8.160E-01 2.034E-01
  57362.30 8.160E-01 2.033E-01
  57362.87 8.161E-01 2.032E-01
  57363.45 8.162E-01 2.031E-01
  57364.02 8.162E-01 2.031E-01
  57364.60 8.163E-01 2.030E-01
  57365.17 8.163E-01 2.030E-01
  57365.74 8.163E-01 2.029E-01
  57366.32 8.163E-01 2.029E-01
  57366.89 8.163E-01 2.029E-01
  57367.47 8.163E-01 2.029E-01
  57368.04 8.163E-01 2.029E-01
  57368.61 8.163E-01 2.029E-01
  57369.19 8.163E-01 2.029E-01
  57369.76 8.163E-01 2.029E-01
  57370.34 8.163E-01 2.029E-01
  57370.91 8.163E-01 2.029E-01
  57371.48 8.163E-01 2.029E-01
  57372.06 8.163E-01 2.030E-01
  57372.63 8.163E-01 2.030E-01
  57373.21 8.163E-01 2.030E-01
  57373.78 8.163E-01 2.030E-01
  57374.36 8.163E-01 2.030E-01
  57374.93 8.162E-01 2.031E-01
  57375.50 8.162E-01 2.031E-01
  57376.08 8.161E-01 2.032E-01
  57376.65 8.160E-01 2.033E-01
  57377.23 8.159E-01 2.035E-01
  57377.80 8.157E-01 2.037E-01
  57378.37 8.155E-01 2.039E-01
  57378.95 8.153E-01 2.042E-01
  57379.52 8.151E-01 2.044E-01
  57380.10 8.149E-01 2.046E-01
  57380.67 8.148E-01 2.048E-01
  57381.25 8.147E-01 2.049E-01
  57381.82 8.147E-01 2.049E-01
  57382.39 8.148E-01 2.048E-01
  57382.97 8.149E-01 2.046E-01
  57383.54 8.151E-01 2.044E-01
  57384.12 8.154E-01 2.041E-01
  57384.69 8.156E-01 2.038E-01
  57385.27 8.158E-01 2.036E-01
  57385.84 8.160E-01 2.034E-01
  57386.41 8.161E-01 2.032E-01
  57386.99 8.162E-01 2.031E-01
  57387.56 8.163E-01 2.030E-01
  57388.14 8.163E-01 2.030E-01
  57388.71 8.163E-01 2.029E-01
  57389.29 8.163E-01 2.029E-01
  57389.86 8.163E-01 2.029E-01
  57390.43 8.163E-01 2.030E-01
  57391.01 8.163E-01 2.030E-01
  57391.58 8.162E-01 2.031E-01
  57392.16 8.161E-01 2.032E-01
  57392.73 8.160E-01 2.033E-01
  57393.31 8.159E-01 2.034E-01
  57393.88 8.158E-01 2.036E-01
  57394.45 8.157E-01 2.037E-01
  57395.03 8.156E-01 2.039E-01
  57395.60 8.155E-01 2.040E-01
  57396.18 8.154E-01 2.041E-01
  57396.75 8.154E-01 2.041E-01
  57397.33 8.154E-01 2.041E-01
  57397.90 8.154E-01 2.041E-01
  57398.47 8.155E-01 2.040E-01
  57399.05 8.155E-01 2.039E-01
  57399.62 8.156E-01 2.038E-01
  57400.20 8.157E-01 2.037E-01
  57400.77 8.158E-01 2.036E-01
  57401.35 8.159E-01 2.035E-01
  57401.92 8.160E-01 2.034E-01
  57402.50 8.161E-01 2.033E-01
  57403.07 8.161E-01 2.032E-01
  57403.64 8.162E-01 2.031E-01
  57404.22 8.162E-01 2.031E-01
  57404.79 8.162E-01 2.031E-01
  57405.37 8.162E-01 2.030E-01
  57405.94 8.163E-01 2.030E-01
  57406.52 8.163E-01 2.030E-01
  57407.09 8.163E-01 2.030E-01
  57407.67 8.163E-01 2.030E-01
  57408.24 8.163E-01 2.030E-01
  57408.81 8.163E-01 2.030E-01
  57409.39 8.163E-01 2.029E-01
  57409.96 8.163E-01 2.029E-01
  57410.54 8.163E-01 2.029E-01
  57411.11 8.163E-01 2.029E-01
  57411.69 8.164E-01 2.029E-01
  57412.26 8.164E-01 2.029E-01
  57412.84 8.164E-01 2.029E-01
  57413.41 8.164E-01 2.029E-01
  57413.99 8.163E-01 2.029E-01
  57414.56 8.163E-01 2.030E-01
  57415.13 8.163E-01 2.030E-01
  57415.71 8.162E-01 2.031E-01
  57416.28 8.160E-01 2.033E-01
  57416.86 8.158E-01 2.035E-01
  57417.43 8.156E-01 2.039E-01
  57418.01 8.153E-01 2.043E-01
  57418.58 8.149E-01 2.047E-01
  57419.16 8.145E-01 2.052E-01
  57419.73 8.141E-01 2.057E-01
  57420.31 8.137E-01 2.061E-01
  57420.88 8.135E-01 2.064E-01
  57421.45 8.134E-01 2.065E-01
  57422.03 8.135E-01 2.064E-01
  57422.60 8.137E-01 2.061E-01
  57423.18 8.141E-01 2.057E-01
  57423.75 8.145E-01 2.052E-01
  57424.33 8.149E-01 2.047E-01
  57424.90 8.153E-01 2.042E-01
  57425.48 8.156E-01 2.038E-01
  57426.05 8.158E-01 2.035E-01
  57426.63 8.160E-01 2.033E-01
  57427.20 8.162E-01 2.031E-01
  57427.78 8.163E-01 2.030E-01
  57428.35 8.163E-01 2.030E-01
  57428.92 8.163E-01 2.029E-01
  57429.50 8.164E-01 2.029E-01
  57430.07 8.164E-01 2.029E-01
  57430.65 8.164E-01 2.029E-01
  57431.22 8.164E-01 2.029E-01
  57431.80 8.164E-01 2.029E-01
  57432.37 8.164E-01 2.029E-01
  57432.95 8.164E-01 2.029E-01
  57433.52 8.164E-01 2.029E-01
  57434.10 8.164E-01 2.029E-01
  57434.67 8.164E-01 2.029E-01
  57435.25 8.164E-01 2.029E-01
  57435.82 8.164E-01 2.029E-01
  57436.40 8.164E-01 2.029E-01
  57436.97 8.163E-01 2.029E-01
  57437.55 8.163E-01 2.029E-01
  57438.12 8.163E-01 2.029E-01
  57438.70 8.163E-01 2.029E-01
  57439.27 8.163E-01 2.029E-01
  57439.85 8.163E-01 2.029E-01
  57440.42 8.163E-01 2.029E-01
  57440.99 8.163E-01 2.029E-01
  57441.57 8.163E-01 2.029E-01
  57442.14 8.163E-01 2.029E-01
  57442.72 8.163E-01 2.029E-01
  57443.29 8.163E-01 2.029E-01
  57443.87 8.163E-01 2.029E-01
  57444.44 8.163E-01 2.029E-01
  57445.02 8.164E-01 2.029E-01
  57445.59 8.164E-01 2.029E-01
  57446.17 8.164E-01 2.029E-01
  57446.74 8.164E-01 2.029E-01
  57447.32 8.164E-01 2.029E-01
  57447.89 8.164E-01 2.029E-01
  57448.47 8.164E-01 2.029E-01
  57449.04 8.164E-01 2.029E-01
  57449.62 8.164E-01 2.029E-01
  57450.19 8.164E-01 2.029E-01
  57450.77 8.164E-01 2.029E-01
  57451.34 8.164E-01 2.029E-01
  57451.92 8.164E-01 2.029E-01
  57452.49 8.164E-01 2.029E-01
  57453.07 8.163E-01 2.029E-01
  57453.64 8.163E-01 2.029E-01
  57454.22 8.163E-01 2.029E-01
  57454.79 8.163E-01 2.029E-01
  57455.37 8.163E-01 2.029E-01
  57455.94 8.163E-01 2.030E-01
  57456.52 8.163E-01 2.030E-01
  57457.09 8.163E-01 2.030E-01
  57457.67 8.163E-01 2.030E-01
  57458.24 8.163E-01 2.030E-01
  57458.82 8.163E-01 2.030E-01
  57459.39 8.163E-01 2.030E-01
  57459.97 8.163E-01 2.030E-01
  57460.54 8.163E-01 2.030E-01
  57461.12 8.163E-01 2.029E-01
  57461.69 8.163E-01 2.029E-01
  57462.27 8.163E-01 2.029E-01
  57462.84 8.163E-01 2.029E-01
  57463.42 8.163E-01 2.029E-01
  57463.99 8.164E-01 2.029E-01
  57464.57 8.164E-01 2.029E-01
  57465.14 8.164E-01 2.029E-01
  57465.72 8.164E-01 2.029E-01
  57466.29 8.164E-01 2.029E-01
  57466.87 8.164E-01 2.029E-01
  57467.44 8.164E-01 2.029E-01
  57468.02 8.164E-01 2.029E-01
  57468.59 8.164E-01 2.029E-01
  57469.17 8.164E-01 2.029E-01
  57469.74 8.164E-01 2.029E-01
  57470.32 8.164E-01 2.029E-01
  57470.89 8.164E-01 2.029E-01
  57471.47 8.164E-01 2.029E-01
  57472.04 8.164E-01 2.029E-01
  57472.62 8.164E-01 2.029E-01
  57473.19 8.164E-01 2.029E-01
  57473.77 8.164E-01 2.029E-01
  57474.34 8.164E-01 2.029E-01
  57474.92 8.164E-01 2.029E-01
  57475.49 8.164E-01 2.029E-01
  57476.07 8.164E-01 2.029E-01
  57476.64 8.164E-01 2.029E-01
  57477.22 8.164E-01 2.029E-01
  57477.79 8.164E-01 2.029E-01
  57478.37 8.164E-01 2.029E-01
  57478.94 8.164E-01 2.029E-01
  57479.52 8.164E-01 2.029E-01
  57480.09 8.163E-01 2.029E-01
  57480.67 8.163E-01 2.029E-01
  57481.25 8.163E-01 2.030E-01
  57481.82 8.162E-01 2.031E-01
